[Measurement conditions]
Sample identification,
Comment - 1,"Configuration=Powder Diffraction, Owner=User-1, Creation date=6/3/2009 8:49:36 AM"
Comment - 2,"Goniometer=PW3050/65 (Theta/2Theta); Minimum step size 2Theta:0.0001; Minimum step size Omega:0.0001"
Comment - 3,"Sample stage=MRD Cradle; Minimum step size Phi:0.01; Minimum step size Chi:0.01; Minimum step size X:0.01; Minimum step size Y:0.01; Minimum step size Z:0.001"
Comment - 4,"Diffractometer system=XPERT-PRO"
Comment - 5,"Measurement program=C:\PANalytical\Data Collector\Programs\powder_scan_49.xrdmp, Identifier={12387B94-FF5E-46B4-B2C7-B6F75F9A12C1}"
Anode material,Cu
K-Alpha1 wavelength,1.5405980
K-Alpha2 wavelength,1.5444260
Ratio K-Alpha2/K-Alpha1,0.500
Divergence slit,Fixed,0.38mm
Monochromator used,NO
Generator voltage, 45
Tube current, 40
File date and time,08/Apr/2015 15:29
Unit cell,
h k l, 0 0 0
Scan axis,Gonio
Scan range,20.000000003,80.010165167
Scan step size,0.0376004
No. of points, 1596
Scan type,CONTINUOUS
Phi,0.00
Psi,0.00
X,0.00
Y,0.00
Z,6.947
Time per step,63.500
[Scan points]
Angle,Intensity
20.018800180,231.0
20.056400534,183.0
20.094000888,203.0
20.131601242,196.0
20.169201596,170.0
20.206801951,217.0
20.244402305,195.0
20.282002659,188.0
20.319603013,203.0
20.357203367,211.0
20.394803721,216.0
20.432404075,184.0
20.470004429,164.0
20.507604783,210.0
20.545205138,211.0
20.582805492,216.0
20.620405846,215.0
20.658006200,225.0
20.695606554,189.0
20.733206908,187.0
20.770807262,189.0
20.808407616,216.0
20.846007970,209.0
20.883608325,183.0
20.921208679,183.0
20.958809033,217.0
20.996409387,201.0
21.034009741,191.0
21.071610095,212.0
21.109210449,224.0
21.146810803,230.0
21.184411157,205.0
21.222011512,214.0
21.259611866,213.0
21.297212220,226.0
21.334812574,225.0
21.372412928,209.0
21.410013282,191.0
21.447613636,187.0
21.485213990,212.0
21.522814345,208.0
21.560414699,222.0
21.598015053,215.0
21.635615407,185.0
21.673215761,213.0
21.710816115,200.0
21.748416469,213.0
21.786016823,213.0
21.823617177,223.0
21.861217532,210.0
21.898817886,189.0
21.936418240,212.0
21.974018594,215.0
22.011618948,243.0
22.049219302,231.0
22.086819656,178.0
22.124420010,189.0
22.162020364,204.0
22.199620719,191.0
22.237221073,212.0
22.274821427,193.0
22.312421781,227.0
22.350022135,184.0
22.387622489,197.0
22.425222843,199.0
22.462823197,197.0
22.500423551,221.0
22.538023906,204.0
22.575624260,202.0
22.613224614,242.0
22.650824968,176.0
22.688425322,216.0
22.726025676,190.0
22.763626030,189.0
22.801226384,203.0
22.838826738,200.0
22.876427093,205.0
22.914027447,192.0
22.951627801,195.0
22.989228155,200.0
23.026828509,198.0
23.064428863,206.0
23.102029217,208.0
23.139629571,191.0
23.177229925,197.0
23.214830280,216.0
23.252430634,231.0
23.290030988,211.0
23.327631342,206.0
23.365231696,202.0
23.402832050,203.0
23.440432404,197.0
23.478032758,190.0
23.515633112,210.0
23.553233467,206.0
23.590833821,191.0
23.628434175,211.0
23.666034529,203.0
23.703634883,215.0
23.741235237,200.0
23.778835591,230.0
23.816435945,209.0
23.854036300,213.0
23.891636654,210.0
23.929237008,205.0
23.966837362,190.0
24.004437716,214.0
24.042038070,218.0
24.079638424,192.0
24.117238778,212.0
24.154839132,199.0
24.192439487,198.0
24.230039841,199.0
24.267640195,208.0
24.305240549,213.0
24.342840903,212.0
24.380441257,184.0
24.418041611,202.0
24.455641965,183.0
24.493242319,184.0
24.530842674,229.0
24.568443028,206.0
24.606043382,203.0
24.643643736,227.0
24.681244090,213.0
24.718844444,206.0
24.756444798,210.0
24.794045152,175.0
24.831645506,202.0
24.869245861,201.0
24.906846215,190.0
24.944446569,184.0
24.982046923,201.0
25.019647277,241.0
25.057247631,197.0
25.094847985,169.0
25.132448339,191.0
25.170048693,195.0
25.207649048,179.0
25.245249402,159.0
25.282849756,190.0
25.320450110,196.0
25.358050464,176.0
25.395650818,185.0
25.433251172,216.0
25.470851526,174.0
25.508451880,191.0
25.546052235,195.0
25.583652589,212.0
25.621252943,172.0
25.658853297,202.0
25.696453651,222.0
25.734054005,190.0
25.771654359,187.0
25.809254713,196.0
25.846855067,213.0
25.884455422,184.0
25.922055776,195.0
25.959656130,191.0
25.997256484,212.0
26.034856838,176.0
26.072457192,197.0
26.110057546,190.0
26.147657900,199.0
26.185258255,185.0
26.222858609,178.0
26.260458963,184.0
26.298059317,206.0
26.335659671,178.0
26.373260025,177.0
26.410860379,200.0
26.448460733,184.0
26.486061087,195.0
26.523661442,178.0
26.561261796,202.0
26.598862150,180.0
26.636462504,175.0
26.674062858,177.0
26.711663212,178.0
26.749263566,191.0
26.786863920,193.0
26.824464274,203.0
26.862064629,183.0
26.899664983,205.0
26.937265337,159.0
26.974865691,202.0
27.012466045,225.0
27.050066399,171.0
27.087666753,180.0
27.125267107,174.0
27.162867461,178.0
27.200467816,171.0
27.238068170,189.0
27.275668524,191.0
27.313268878,175.0
27.350869232,141.0
27.388469586,172.0
27.426069940,150.0
27.463670294,165.0
27.501270648,184.0
27.538871003,178.0
27.576471357,212.0
27.614071711,171.0
27.651672065,178.0
27.689272419,183.0
27.726872773,166.0
27.764473127,182.0
27.802073481,161.0
27.839673835,173.0
27.877274190,180.0
27.914874544,166.0
27.952474898,178.0
27.990075252,157.0
28.027675606,175.0
28.065275960,175.0
28.102876314,196.0
28.140476668,187.0
28.178077022,189.0
28.215677377,184.0
28.253277731,198.0
28.290878085,184.0
28.328478439,175.0
28.366078793,172.0
28.403679147,149.0
28.441279501,201.0
28.478879855,183.0
28.516480210,179.0
28.554080564,159.0
28.591680918,170.0
28.629281272,172.0
28.666881626,166.0
28.704481980,137.0
28.742082334,186.0
28.779682688,173.0
28.817283042,163.0
28.854883397,180.0
28.892483751,172.0
28.930084105,166.0
28.967684459,161.0
29.005284813,173.0
29.042885167,164.0
29.080485521,172.0
29.118085875,150.0
29.155686229,180.0
29.193286584,186.0
29.230886938,187.0
29.268487292,166.0
29.306087646,161.0
29.343688000,169.0
29.381288354,213.0
29.418888708,144.0
29.456489062,173.0
29.494089416,183.0
29.531689771,153.0
29.569290125,159.0
29.606890479,163.0
29.644490833,183.0
29.682091187,172.0
29.719691541,172.0
29.757291895,152.0
29.794892249,161.0
29.832492603,159.0
29.870092958,151.0
29.907693312,174.0
29.945293666,171.0
29.982894020,187.0
30.020494374,175.0
30.058094728,162.0
30.095695082,164.0
30.133295436,141.0
30.170895790,147.0
30.208496145,187.0
30.246096499,166.0
30.283696853,158.0
30.321297207,157.0
30.358897561,177.0
30.396497915,160.0
30.434098269,158.0
30.471698623,167.0
30.509298977,154.0
30.546899332,145.0
30.584499686,150.0
30.622100040,166.0
30.659700394,177.0
30.697300748,176.0
30.734901102,166.0
30.772501456,174.0
30.810101810,145.0
30.847702165,126.0
30.885302519,158.0
30.922902873,137.0
30.960503227,159.0
30.998103581,152.0
31.035703935,160.0
31.073304289,161.0
31.110904643,147.0
31.148504997,149.0
31.186105352,151.0
31.223705706,177.0
31.261306060,157.0
31.298906414,152.0
31.336506768,149.0
31.374107122,154.0
31.411707476,149.0
31.449307830,136.0
31.486908184,149.0
31.524508539,134.0
31.562108893,133.0
31.599709247,149.0
31.637309601,172.0
31.674909955,148.0
31.712510309,134.0
31.750110663,134.0
31.787711017,153.0
31.825311371,135.0
31.862911726,141.0
31.900512080,125.0
31.938112434,154.0
31.975712788,150.0
32.013313142,144.0
32.050913496,150.0
32.088513850,156.0
32.126114204,137.0
32.163714558,160.0
32.201314913,145.0
32.238915267,172.0
32.276515621,148.0
32.314115975,132.0
32.351716329,133.0
32.389316683,140.0
32.426917037,148.0
32.464517391,156.0
32.502117745,164.0
32.539718100,151.0
32.577318454,141.0
32.614918808,152.0
32.652519162,128.0
32.690119516,156.0
32.727719870,122.0
32.765320224,133.0
32.802920578,152.0
32.840520932,154.0
32.878121287,119.0
32.915721641,241.0
32.953321995,532.0
32.990922349,176.0
33.028522703,291.0
33.066123057,191.0
33.103723411,119.0
33.141323765,139.0
33.178924119,149.0
33.216524474,125.0
33.254124828,166.0
33.291725182,118.0
33.329325536,131.0
33.366925890,148.0
33.404526244,121.0
33.442126598,123.0
33.479726952,125.0
33.517327307,137.0
33.554927661,143.0
33.592528015,145.0
33.630128369,134.0
33.667728723,131.0
33.705329077,135.0
33.742929431,139.0
33.780529785,124.0
33.818130139,127.0
33.855730494,110.0
33.893330848,140.0
33.930931202,144.0
33.968531556,174.0
34.006131910,113.0
34.043732264,146.0
34.081332618,118.0
34.118932972,148.0
34.156533326,137.0
34.194133681,137.0
34.231734035,146.0
34.269334389,122.0
34.306934743,136.0
34.344535097,131.0
34.382135451,147.0
34.419735805,132.0
34.457336159,135.0
34.494936513,113.0
34.532536868,94.0
34.570137222,105.0
34.607737576,119.0
34.645337930,122.0
34.682938284,135.0
34.720538638,132.0
34.758138992,124.0
34.795739346,126.0
34.833339700,143.0
34.870940055,132.0
34.908540409,113.0
34.946140763,125.0
34.983741117,132.0
35.021341471,105.0
35.058941825,128.0
35.096542179,133.0
35.134142533,122.0
35.171742887,128.0
35.209343242,162.0
35.246943596,111.0
35.284543950,141.0
35.322144304,121.0
35.359744658,117.0
35.397345012,138.0
35.434945366,105.0
35.472545720,119.0
35.510146074,102.0
35.547746429,132.0
35.585346783,138.0
35.622947137,147.0
35.660547491,109.0
35.698147845,121.0
35.735748199,105.0
35.773348553,111.0
35.810948907,123.0
35.848549262,127.0
35.886149616,131.0
35.923749970,133.0
35.961350324,127.0
35.998950678,169.0
36.036551032,127.0
36.074151386,109.0
36.111751740,113.0
36.149352094,110.0
36.186952449,150.0
36.224552803,135.0
36.262153157,159.0
36.299753511,133.0
36.337353865,150.0
36.374954219,152.0
36.412554573,117.0
36.450154927,132.0
36.487755281,135.0
36.525355636,123.0
36.562955990,140.0
36.600556344,138.0
36.638156698,126.0
36.675757052,128.0
36.713357406,118.0
36.750957760,131.0
36.788558114,130.0
36.826158468,134.0
36.863758823,133.0
36.901359177,152.0
36.938959531,143.0
36.976559885,132.0
37.014160239,140.0
37.051760593,162.0
37.089360947,132.0
37.126961301,144.0
37.164561655,136.0
37.202162010,133.0
37.239762364,159.0
37.277362718,150.0
37.314963072,150.0
37.352563426,169.0
37.390163780,140.0
37.427764134,166.0
37.465364488,156.0
37.502964842,182.0
37.540565197,190.0
37.578165551,159.0
37.615765905,203.0
37.653366259,161.0
37.690966613,210.0
37.728566967,242.0
37.766167321,257.0
37.803767675,256.0
37.841368029,328.0
37.878968384,407.0
37.916568738,494.0
37.954169092,694.0
37.991769446,1055.0
38.029369800,1704.0
38.066970154,2818.0
38.104570508,3606.0
38.142170862,2610.0
38.179771217,2465.0
38.217371571,1863.0
38.254971925,1088.0
38.292572279,664.0
38.330172633,476.0
38.367772987,353.0
38.405373341,309.0
38.442973695,289.0
38.480574049,228.0
38.518174404,231.0
38.555774758,187.0
38.593375112,188.0
38.630975466,191.0
38.668575820,159.0
38.706176174,159.0
38.743776528,188.0
38.781376882,162.0
38.818977236,149.0
38.856577591,147.0
38.894177945,152.0
38.931778299,147.0
38.969378653,159.0
39.006979007,123.0
39.044579361,156.0
39.082179715,149.0
39.119780069,146.0
39.157380423,125.0
39.194980778,130.0
39.232581132,131.0
39.270181486,141.0
39.307781840,151.0
39.345382194,147.0
39.382982548,153.0
39.420582902,123.0
39.458183256,108.0
39.495783610,113.0
39.533383965,120.0
39.570984319,110.0
39.608584673,115.0
39.646185027,120.0
39.683785381,110.0
39.721385735,133.0
39.758986089,119.0
39.796586443,127.0
39.834186797,109.0
39.871787152,125.0
39.909387506,109.0
39.946987860,115.0
39.984588214,160.0
40.022188568,81.0
40.059788922,125.0
40.097389276,117.0
40.134989630,137.0
40.172589984,97.0
40.210190339,139.0
40.247790693,113.0
40.285391047,135.0
40.322991401,122.0
40.360591755,115.0
40.398192109,138.0
40.435792463,100.0
40.473392817,109.0
40.510993172,139.0
40.548593526,131.0
40.586193880,134.0
40.623794234,122.0
40.661394588,111.0
40.698994942,114.0
40.736595296,110.0
40.774195650,118.0
40.811796004,113.0
40.849396359,127.0
40.886996713,115.0
40.924597067,94.0
40.962197421,119.0
40.999797775,119.0
41.037398129,121.0
41.074998483,118.0
41.112598837,144.0
41.150199191,95.0
41.187799546,95.0
41.225399900,92.0
41.263000254,113.0
41.300600608,109.0
41.338200962,109.0
41.375801316,126.0
41.413401670,118.0
41.451002024,99.0
41.488602378,108.0
41.526202733,100.0
41.563803087,94.0
41.601403441,93.0
41.639003795,106.0
41.676604149,117.0
41.714204503,92.0
41.751804857,105.0
41.789405211,96.0
41.827005565,119.0
41.864605920,102.0
41.902206274,97.0
41.939806628,112.0
41.977406982,113.0
42.015007336,108.0
42.052607690,108.0
42.090208044,113.0
42.127808398,95.0
42.165408752,135.0
42.203009107,99.0
42.240609461,118.0
42.278209815,95.0
42.315810169,109.0
42.353410523,108.0
42.391010877,109.0
42.428611231,113.0
42.466211585,107.0
42.503811939,96.0
42.541412294,95.0
42.579012648,96.0
42.616613002,126.0
42.654213356,114.0
42.691813710,107.0
42.729414064,107.0
42.767014418,134.0
42.804614772,106.0
42.842215127,99.0
42.879815481,114.0
42.917415835,92.0
42.955016189,118.0
42.992616543,115.0
43.030216897,131.0
43.067817251,119.0
43.105417605,135.0
43.143017959,127.0
43.180618314,117.0
43.218218668,134.0
43.255819022,115.0
43.293419376,104.0
43.331019730,111.0
43.368620084,137.0
43.406220438,135.0
43.443820792,132.0
43.481421146,119.0
43.519021501,135.0
43.556621855,98.0
43.594222209,119.0
43.631822563,141.0
43.669422917,134.0
43.707023271,146.0
43.744623625,140.0
43.782223979,151.0
43.819824333,177.0
43.857424688,162.0
43.895025042,190.0
43.932625396,190.0
43.970225750,215.0
44.007826104,272.0
44.045426458,269.0
44.083026812,319.0
44.120627166,439.0
44.158227520,535.0
44.195827875,778.0
44.233428229,1037.0
44.271028583,1311.0
44.308628937,1250.0
44.346229291,1031.0
44.383829645,975.0
44.421429999,766.0
44.459030353,603.0
44.496630707,412.0
44.534231062,343.0
44.571831416,219.0
44.609431770,224.0
44.647032124,170.0
44.684632478,177.0
44.722232832,163.0
44.759833186,164.0
44.797433540,150.0
44.835033894,148.0
44.872634249,132.0
44.910234603,135.0
44.947834957,117.0
44.985435311,124.0
45.023035665,109.0
45.060636019,128.0
45.098236373,127.0
45.135836727,101.0
45.173437081,118.0
45.211037436,128.0
45.248637790,125.0
45.286238144,124.0
45.323838498,104.0
45.361438852,110.0
45.399039206,105.0
45.436639560,92.0
45.474239914,82.0
45.511840269,94.0
45.549440623,105.0
45.587040977,101.0
45.624641331,94.0
45.662241685,98.0
45.699842039,96.0
45.737442393,93.0
45.775042747,76.0
45.812643101,85.0
45.850243456,95.0
45.887843810,110.0
45.925444164,102.0
45.963044518,95.0
46.000644872,117.0
46.038245226,86.0
46.075845580,105.0
46.113445934,95.0
46.151046288,94.0
46.188646643,91.0
46.226246997,85.0
46.263847351,96.0
46.301447705,89.0
46.339048059,87.0
46.376648413,84.0
46.414248767,91.0
46.451849121,92.0
46.489449475,97.0
46.527049830,88.0
46.564650184,74.0
46.602250538,83.0
46.639850892,97.0
46.677451246,91.0
46.715051600,86.0
46.752651954,88.0
46.790252308,92.0
46.827852662,73.0
46.865453017,85.0
46.903053371,80.0
46.940653725,84.0
46.978254079,105.0
47.015854433,83.0
47.053454787,81.0
47.091055141,85.0
47.128655495,117.0
47.166255849,94.0
47.203856204,87.0
47.241456558,71.0
47.279056912,97.0
47.316657266,75.0
47.354257620,84.0
47.391857974,78.0
47.429458328,88.0
47.467058682,85.0
47.504659036,78.0
47.542259391,81.0
47.579859745,82.0
47.617460099,87.0
47.655060453,73.0
47.692660807,76.0
47.730261161,96.0
47.767861515,82.0
47.805461869,92.0
47.843062224,87.0
47.880662578,84.0
47.918262932,82.0
47.955863286,92.0
47.993463640,70.0
48.031063994,89.0
48.068664348,94.0
48.106264702,85.0
48.143865056,71.0
48.181465411,67.0
48.219065765,82.0
48.256666119,75.0
48.294266473,93.0
48.331866827,97.0
48.369467181,93.0
48.407067535,86.0
48.444667889,70.0
48.482268243,88.0
48.519868598,71.0
48.557468952,79.0
48.595069306,75.0
48.632669660,79.0
48.670270014,86.0
48.707870368,71.0
48.745470722,75.0
48.783071076,93.0
48.820671430,74.0
48.858271785,74.0
48.895872139,68.0
48.933472493,71.0
48.971072847,72.0
49.008673201,88.0
49.046273555,84.0
49.083873909,91.0
49.121474263,82.0
49.159074617,84.0
49.196674972,81.0
49.234275326,97.0
49.271875680,73.0
49.309476034,85.0
49.347076388,75.0
49.384676742,80.0
49.422277096,79.0
49.459877450,81.0
49.497477804,78.0
49.535078159,78.0
49.572678513,63.0
49.610278867,87.0
49.647879221,76.0
49.685479575,82.0
49.723079929,74.0
49.760680283,71.0
49.798280637,94.0
49.835880991,63.0
49.873481346,85.0
49.911081700,65.0
49.948682054,73.0
49.986282408,65.0
50.023882762,81.0
50.061483116,79.0
50.099083470,82.0
50.136683824,67.0
50.174284179,81.0
50.211884533,75.0
50.249484887,68.0
50.287085241,60.0
50.324685595,83.0
50.362285949,95.0
50.399886303,75.0
50.437486657,94.0
50.475087011,74.0
50.512687366,66.0
50.550287720,87.0
50.587888074,82.0
50.625488428,79.0
50.663088782,83.0
50.700689136,80.0
50.738289490,72.0
50.775889844,63.0
50.813490198,74.0
50.851090553,81.0
50.888690907,66.0
50.926291261,67.0
50.963891615,67.0
51.001491969,74.0
51.039092323,81.0
51.076692677,84.0
51.114293031,73.0
51.151893385,58.0
51.189493740,92.0
51.227094094,61.0
51.264694448,63.0
51.302294802,83.0
51.339895156,73.0
51.377495510,69.0
51.415095864,69.0
51.452696218,62.0
51.490296572,84.0
51.527896927,69.0
51.565497281,61.0
51.603097635,61.0
51.640697989,76.0
51.678298343,78.0
51.715898697,61.0
51.753499051,58.0
51.791099405,61.0
51.828699759,66.0
51.866300114,72.0
51.903900468,85.0
51.941500822,73.0
51.979101176,67.0
52.016701530,68.0
52.054301884,81.0
52.091902238,89.0
52.129502592,69.0
52.167102946,66.0
52.204703301,54.0
52.242303655,61.0
52.279904009,57.0
52.317504363,73.0
52.355104717,54.0
52.392705071,57.0
52.430305425,93.0
52.467905779,67.0
52.505506134,58.0
52.543106488,68.0
52.580706842,59.0
52.618307196,53.0
52.655907550,75.0
52.693507904,55.0
52.731108258,53.0
52.768708612,67.0
52.806308966,62.0
52.843909321,66.0
52.881509675,56.0
52.919110029,75.0
52.956710383,83.0
52.994310737,71.0
53.031911091,70.0
53.069511445,61.0
53.107111799,63.0
53.144712153,74.0
53.182312508,75.0
53.219912862,49.0
53.257513216,62.0
53.295113570,72.0
53.332713924,67.0
53.370314278,67.0
53.407914632,63.0
53.445514986,68.0
53.483115340,62.0
53.520715695,57.0
53.558316049,58.0
53.595916403,56.0
53.633516757,75.0
53.671117111,69.0
53.708717465,70.0
53.746317819,61.0
53.783918173,92.0
53.821518527,65.0
53.859118882,59.0
53.896719236,75.0
53.934319590,63.0
53.971919944,68.0
54.009520298,62.0
54.047120652,68.0
54.084721006,54.0
54.122321360,82.0
54.159921714,82.0
54.197522069,67.0
54.235122423,67.0
54.272722777,52.0
54.310323131,66.0
54.347923485,57.0
54.385523839,57.0
54.423124193,69.0
54.460724547,74.0
54.498324901,57.0
54.535925256,82.0
54.573525610,66.0
54.611125964,70.0
54.648726318,55.0
54.686326672,75.0
54.723927026,59.0
54.761527380,74.0
54.799127734,66.0
54.836728089,72.0
54.874328443,59.0
54.911928797,69.0
54.949529151,68.0
54.987129505,52.0
55.024729859,70.0
55.062330213,53.0
55.099930567,58.0
55.137530921,70.0
55.175131276,61.0
55.212731630,70.0
55.250331984,57.0
55.287932338,78.0
55.325532692,53.0
55.363133046,60.0
55.400733400,56.0
55.438333754,49.0
55.475934108,55.0
55.513534463,61.0
55.551134817,63.0
55.588735171,68.0
55.626335525,68.0
55.663935879,61.0
55.701536233,56.0
55.739136587,56.0
55.776736941,57.0
55.814337295,78.0
55.851937650,76.0
55.889538004,66.0
55.927138358,63.0
55.964738712,67.0
56.002339066,59.0
56.039939420,68.0
56.077539774,62.0
56.115140128,58.0
56.152740482,62.0
56.190340837,81.0
56.227941191,46.0
56.265541545,72.0
56.303141899,50.0
56.340742253,78.0
56.378342607,65.0
56.415942961,52.0
56.453543315,49.0
56.491143669,73.0
56.528744024,73.0
56.566344378,68.0
56.603944732,56.0
56.641545086,56.0
56.679145440,67.0
56.716745794,47.0
56.754346148,59.0
56.791946502,56.0
56.829546856,56.0
56.867147211,56.0
56.904747565,61.0
56.942347919,46.0
56.979948273,47.0
57.017548627,50.0
57.055148981,56.0
57.092749335,58.0
57.130349689,55.0
57.167950043,55.0
57.205550398,60.0
57.243150752,55.0
57.280751106,63.0
57.318351460,67.0
57.355951814,65.0
57.393552168,61.0
57.431152522,69.0
57.468752876,54.0
57.506353231,54.0
57.543953585,54.0
57.581553939,65.0
57.619154293,63.0
57.656754647,59.0
57.694355001,56.0
57.731955355,60.0
57.769555709,55.0
57.807156063,65.0
57.844756418,65.0
57.882356772,47.0
57.919957126,66.0
57.957557480,62.0
57.995157834,67.0
58.032758188,75.0
58.070358542,57.0
58.107958896,68.0
58.145559250,60.0
58.183159605,68.0
58.220759959,66.0
58.258360313,58.0
58.295960667,58.0
58.333561021,59.0
58.371161375,60.0
58.408761729,63.0
58.446362083,57.0
58.483962437,47.0
58.521562792,56.0
58.559163146,48.0
58.596763500,60.0
58.634363854,57.0
58.671964208,57.0
58.709564562,54.0
58.747164916,55.0
58.784765270,67.0
58.822365624,49.0
58.859965979,49.0
58.897566333,63.0
58.935166687,62.0
58.972767041,61.0
59.010367395,60.0
59.047967749,68.0
59.085568103,70.0
59.123168457,62.0
59.160768811,73.0
59.198369166,60.0
59.235969520,57.0
59.273569874,54.0
59.311170228,56.0
59.348770582,59.0
59.386370936,62.0
59.423971290,56.0
59.461571644,75.0
59.499171998,56.0
59.536772353,63.0
59.574372707,68.0
59.611973061,63.0
59.649573415,66.0
59.687173769,68.0
59.724774123,62.0
59.762374477,60.0
59.799974831,54.0
59.837575186,73.0
59.875175540,65.0
59.912775894,62.0
59.950376248,52.0
59.987976602,52.0
60.025576956,66.0
60.063177310,48.0
60.100777664,61.0
60.138378018,52.0
60.175978373,54.0
60.213578727,56.0
60.251179081,65.0
60.288779435,54.0
60.326379789,49.0
60.363980143,50.0
60.401580497,66.0
60.439180851,59.0
60.476781205,68.0
60.514381560,60.0
60.551981914,58.0
60.589582268,52.0
60.627182622,47.0
60.664782976,49.0
60.702383330,56.0
60.739983684,70.0
60.777584038,48.0
60.815184392,66.0
60.852784747,56.0
60.890385101,63.0
60.927985455,53.0
60.965585809,54.0
61.003186163,61.0
61.040786517,71.0
61.078386871,60.0
61.115987225,66.0
61.153587579,62.0
61.191187934,60.0
61.228788288,55.0
61.266388642,66.0
61.303988996,54.0
61.341589350,55.0
61.379189704,47.0
61.416790058,70.0
61.454390412,63.0
61.491990766,60.0
61.529591121,83.0
61.567191475,73.0
61.604791829,131.0
61.642392183,340.0
61.679992537,611.0
61.717592891,277.0
61.755193245,126.0
61.792793599,102.0
61.830393953,71.0
61.867994308,55.0
61.905594662,62.0
61.943195016,54.0
61.980795370,76.0
62.018395724,68.0
62.055996078,60.0
62.093596432,54.0
62.131196786,55.0
62.168797141,66.0
62.206397495,59.0
62.243997849,52.0
62.281598203,69.0
62.319198557,69.0
62.356798911,62.0
62.394399265,60.0
62.431999619,55.0
62.469599973,60.0
62.507200328,55.0
62.544800682,71.0
62.582401036,78.0
62.620001390,55.0
62.657601744,75.0
62.695202098,47.0
62.732802452,65.0
62.770402806,58.0
62.808003160,74.0
62.845603515,70.0
62.883203869,75.0
62.920804223,69.0
62.958404577,71.0
62.996004931,71.0
63.033605285,57.0
63.071205639,66.0
63.108805993,67.0
63.146406347,62.0
63.184006702,59.0
63.221607056,59.0
63.259207410,61.0
63.296807764,52.0
63.334408118,66.0
63.372008472,71.0
63.409608826,69.0
63.447209180,84.0
63.484809534,69.0
63.522409889,69.0
63.560010243,59.0
63.597610597,65.0
63.635210951,65.0
63.672811305,68.0
63.710411659,66.0
63.748012013,68.0
63.785612367,59.0
63.823212721,76.0
63.860813076,78.0
63.898413430,108.0
63.936013784,87.0
63.973614138,95.0
64.011214492,93.0
64.048814846,126.0
64.086415200,144.0
64.124015554,139.0
64.161615908,141.0
64.199216263,166.0
64.236816617,192.0
64.274416971,267.0
64.312017325,358.0
64.349617679,516.0
64.387218033,717.0
64.424818387,811.0
64.462418741,735.0
64.500019096,532.0
64.537619450,575.0
64.575219804,580.0
64.612820158,534.0
64.650420512,406.0
64.688020866,334.0
64.725621220,237.0
64.763221574,198.0
64.800821928,164.0
64.838422283,148.0
64.876022637,114.0
64.913622991,108.0
64.951223345,115.0
64.988823699,78.0
65.026424053,93.0
65.064024407,86.0
65.101624761,83.0
65.139225115,91.0
65.176825470,68.0
65.214425824,65.0
65.252026178,79.0
65.289626532,83.0
65.327226886,83.0
65.364827240,75.0
65.402427594,73.0
65.440027948,62.0
65.477628302,60.0
65.515228657,63.0
65.552829011,67.0
65.590429365,61.0
65.628029719,69.0
65.665630073,76.0
65.703230427,56.0
65.740830781,65.0
65.778431135,63.0
65.816031489,71.0
65.853631844,74.0
65.891232198,68.0
65.928832552,59.0
65.966432906,74.0
66.004033260,70.0
66.041633614,60.0
66.079233968,65.0
66.116834322,65.0
66.154434676,75.0
66.192035031,75.0
66.229635385,73.0
66.267235739,73.0
66.304836093,66.0
66.342436447,74.0
66.380036801,93.0
66.417637155,86.0
66.455237509,182.0
66.492837863,257.0
66.530438218,282.0
66.568038572,277.0
66.605638926,299.0
66.643239280,280.0
66.680839634,273.0
66.718439988,280.0
66.756040342,265.0
66.793640696,256.0
66.831241051,242.0
66.868841405,281.0
66.906441759,302.0
66.944042113,295.0
66.981642467,274.0
67.019242821,304.0
67.056843175,292.0
67.094443529,269.0
67.132043883,304.0
67.169644238,270.0
67.207244592,279.0
67.244844946,321.0
67.282445300,301.0
67.320045654,285.0
67.357646008,333.0
67.395246362,299.0
67.432846716,295.0
67.470447070,279.0
67.508047425,268.0
67.545647779,299.0
67.583248133,281.0
67.620848487,298.0
67.658448841,319.0
67.696049195,289.0
67.733649549,324.0
67.771249903,318.0
67.808850257,315.0
67.846450612,334.0
67.884050966,326.0
67.921651320,332.0
67.959251674,365.0
67.996852028,325.0
68.034452382,370.0
68.072052736,347.0
68.109653090,318.0
68.147253444,393.0
68.184853799,404.0
68.222454153,421.0
68.260054507,451.0
68.297654861,424.0
68.335255215,474.0
68.372855569,464.0
68.410455923,497.0
68.448056277,546.0
68.485656631,588.0
68.523256986,636.0
68.560857340,662.0
68.598457694,749.0
68.636058048,864.0
68.673658402,1000.0
68.711258756,1447.0
68.748859110,1915.0
68.786459464,2449.0
68.824059818,2420.0
68.861660173,2198.0
68.899260527,2500.0
68.936860881,3097.0
68.974461235,4873.0
69.012061589,8994.0
69.049661943,20554.0
69.087262297,105246.0
69.124862651,272528.0
69.162463005,56467.0
69.200063360,17155.0
69.237663714,14300.0
69.275264068,38735.0
69.312864422,137405.0
69.350464776,46742.0
69.388065130,11202.0
69.425665484,5251.0
69.463265838,3281.0
69.500866193,2338.0
69.538466547,1842.0
69.576066901,1590.0
69.613667255,1308.0
69.651267609,1128.0
69.688867963,975.0
69.726468317,915.0
69.764068671,792.0
69.801669025,807.0
69.839269380,649.0
69.876869734,603.0
69.914470088,594.0
69.952070442,528.0
69.989670796,525.0
70.027271150,523.0
70.064871504,503.0
70.102471858,449.0
70.140072212,408.0
70.177672567,443.0
70.215272921,421.0
70.252873275,399.0
70.290473629,397.0
70.328073983,395.0
70.365674337,330.0
70.403274691,329.0
70.440875045,303.0
70.478475399,329.0
70.516075754,327.0
70.553676108,328.0
70.591276462,319.0
70.628876816,303.0
70.666477170,260.0
70.704077524,293.0
70.741677878,273.0
70.779278232,283.0
70.816878586,282.0
70.854478941,255.0
70.892079295,270.0
70.929679649,264.0
70.967280003,244.0
71.004880357,247.0
71.042480711,240.0
71.080081065,277.0
71.117681419,255.0
71.155281773,249.0
71.192882128,240.0
71.230482482,248.0
71.268082836,221.0
71.305683190,211.0
71.343283544,205.0
71.380883898,242.0
71.418484252,221.0
71.456084606,205.0
71.493684960,202.0
71.531285315,199.0
71.568885669,209.0
71.606486023,202.0
71.644086377,180.0
71.681686731,178.0
71.719287085,193.0
71.756887439,211.0
71.794487793,209.0
71.832088148,195.0
71.869688502,175.0
71.907288856,188.0
71.944889210,183.0
71.982489564,177.0
72.020089918,184.0
72.057690272,179.0
72.095290626,203.0
72.132890980,204.0
72.170491335,188.0
72.208091689,172.0
72.245692043,171.0
72.283292397,172.0
72.320892751,171.0
72.358493105,177.0
72.396093459,185.0
72.433693813,185.0
72.471294167,195.0
72.508894522,172.0
72.546494876,187.0
72.584095230,156.0
72.621695584,143.0
72.659295938,177.0
72.696896292,198.0
72.734496646,189.0
72.772097000,183.0
72.809697354,157.0
72.847297709,180.0
72.884898063,151.0
72.922498417,152.0
72.960098771,159.0
72.997699125,189.0
73.035299479,159.0
73.072899833,169.0
73.110500187,169.0
73.148100541,166.0
73.185700896,167.0
73.223301250,156.0
73.260901604,149.0
73.298501958,156.0
73.336102312,148.0
73.373702666,138.0
73.411303020,137.0
73.448903374,140.0
73.486503728,138.0
73.524104083,145.0
73.561704437,169.0
73.599304791,147.0
73.636905145,164.0
73.674505499,171.0
73.712105853,157.0
73.749706207,158.0
73.787306561,140.0
73.824906915,143.0
73.862507270,138.0
73.900107624,144.0
73.937707978,146.0
73.975308332,160.0
74.012908686,145.0
74.050509040,149.0
74.088109394,131.0
74.125709748,120.0
74.163310103,133.0
74.200910457,154.0
74.238510811,148.0
74.276111165,164.0
74.313711519,174.0
74.351311873,108.0
74.388912227,132.0
74.426512581,125.0
74.464112935,110.0
74.501713290,140.0
74.539313644,130.0
74.576913998,132.0
74.614514352,128.0
74.652114706,140.0
74.689715060,149.0
74.727315414,125.0
74.764915768,132.0
74.802516122,136.0
74.840116477,136.0
74.877716831,120.0
74.915317185,137.0
74.952917539,134.0
74.990517893,147.0
75.028118247,144.0
75.065718601,136.0
75.103318955,140.0
75.140919309,130.0
75.178519664,112.0
75.216120018,136.0
75.253720372,156.0
75.291320726,136.0
75.328921080,125.0
75.366521434,138.0
75.404121788,136.0
75.441722142,118.0
75.479322496,156.0
75.516922851,130.0
75.554523205,126.0
75.592123559,138.0
75.629723913,131.0
75.667324267,118.0
75.704924621,121.0
75.742524975,132.0
75.780125329,146.0
75.817725683,125.0
75.855326038,120.0
75.892926392,122.0
75.930526746,152.0
75.968127100,109.0
76.005727454,139.0
76.043327808,131.0
76.080928162,121.0
76.118528516,134.0
76.156128870,111.0
76.193729225,151.0
76.231329579,110.0
76.268929933,132.0
76.306530287,136.0
76.344130641,128.0
76.381730995,124.0
76.419331349,131.0
76.456931703,123.0
76.494532058,127.0
76.532132412,118.0
76.569732766,167.0
76.607333120,137.0
76.644933474,126.0
76.682533828,132.0
76.720134182,145.0
76.757734536,144.0
76.795334890,166.0
76.832935245,114.0
76.870535599,160.0
76.908135953,169.0
76.945736307,184.0
76.983336661,188.0
77.020937015,180.0
77.058537369,202.0
77.096137723,256.0
77.133738077,263.0
77.171338432,314.0
77.208938786,350.0
77.246539140,446.0
77.284139494,563.0
77.321739848,731.0
77.359340202,811.0
77.396940556,793.0
77.434540910,704.0
77.472141264,594.0
77.509741619,552.0
77.547341973,514.0
77.584942327,578.0
77.622542681,506.0
77.660143035,431.0
77.697743389,391.0
77.735343743,289.0
77.772944097,262.0
77.810544451,227.0
77.848144806,186.0
77.885745160,184.0
77.923345514,157.0
77.960945868,144.0
77.998546222,124.0
78.036146576,120.0
78.073746930,148.0
78.111347284,147.0
78.148947638,128.0
78.186547993,140.0
78.224148347,138.0
78.261748701,108.0
78.299349055,120.0
78.336949409,104.0
78.374549763,105.0
78.412150117,123.0
78.449750471,114.0
78.487350825,122.0
78.524951180,141.0
78.562551534,111.0
78.600151888,110.0
78.637752242,101.0
78.675352596,93.0
78.712952950,113.0
78.750553304,96.0
78.788153658,97.0
78.825754013,111.0
78.863354367,100.0
78.900954721,96.0
78.938555075,89.0
78.976155429,92.0
79.013755783,101.0
79.051356137,108.0
79.088956491,104.0
79.126556845,97.0
79.164157200,124.0
79.201757554,85.0
79.239357908,94.0
79.276958262,104.0
79.314558616,94.0
79.352158970,95.0
79.389759324,112.0
79.427359678,78.0
79.464960032,91.0
79.502560387,122.0
79.540160741,96.0
79.577761095,87.0
79.615361449,101.0
79.652961803,110.0
79.690562157,88.0
79.728162511,92.0
79.765762865,87.0
79.803363219,117.0
79.840963574,88.0
79.878563928,112.0
79.916164282,100.0
79.953764636,111.0
79.991364990,94.0
