[Measurement conditions]
Sample identification,
Comment - 1,"Configuration=Powder Diffraction, Owner=User-1, Creation date=6/3/2009 8:49:36 AM"
Comment - 2,"Goniometer=PW3050/65 (Theta/2Theta); Minimum step size 2Theta:0.0001; Minimum step size Omega:0.0001"
Comment - 3,"Sample stage=MRD Cradle; Minimum step size Phi:0.01; Minimum step size Chi:0.01; Minimum step size X:0.01; Minimum step size Y:0.01; Minimum step size Z:0.001"
Comment - 4,"Diffractometer system=XPERT-PRO"
Comment - 5,"Measurement program=C:\PANalytical\Data Collector\Programs\powder_scan_49.xrdmp, Identifier={12387B94-FF5E-46B4-B2C7-B6F75F9A12C1}"
Anode material,Cu
K-Alpha1 wavelength,1.5405980
K-Alpha2 wavelength,1.5444260
Ratio K-Alpha2/K-Alpha1,0.500
Divergence slit,Fixed,0.38mm
Monochromator used,NO
Generator voltage, 45
Tube current, 40
File date and time,08/Apr/2015 16:19
Unit cell,
h k l, 0 0 0
Scan axis,Gonio
Scan range,20.000000003,80.010165167
Scan step size,0.0376004
No. of points, 1596
Scan type,CONTINUOUS
Phi,0.00
Psi,0.00
X,0.00
Y,0.00
Z,6.920
Time per step,63.500
[Scan points]
Angle,Intensity
20.018800180,278.0
20.056400534,266.0
20.094000888,309.0
20.131601242,268.0
20.169201596,274.0
20.206801951,316.0
20.244402305,313.0
20.282002659,267.0
20.319603013,298.0
20.357203367,312.0
20.394803721,256.0
20.432404075,315.0
20.470004429,280.0
20.507604783,304.0
20.545205138,305.0
20.582805492,318.0
20.620405846,340.0
20.658006200,351.0
20.695606554,314.0
20.733206908,365.0
20.770807262,300.0
20.808407616,318.0
20.846007970,307.0
20.883608325,333.0
20.921208679,303.0
20.958809033,308.0
20.996409387,340.0
21.034009741,306.0
21.071610095,353.0
21.109210449,309.0
21.146810803,321.0
21.184411157,279.0
21.222011512,305.0
21.259611866,330.0
21.297212220,327.0
21.334812574,300.0
21.372412928,305.0
21.410013282,308.0
21.447613636,298.0
21.485213990,332.0
21.522814345,276.0
21.560414699,315.0
21.598015053,285.0
21.635615407,307.0
21.673215761,300.0
21.710816115,335.0
21.748416469,350.0
21.786016823,306.0
21.823617177,326.0
21.861217532,325.0
21.898817886,291.0
21.936418240,277.0
21.974018594,296.0
22.011618948,280.0
22.049219302,317.0
22.086819656,327.0
22.124420010,316.0
22.162020364,285.0
22.199620719,319.0
22.237221073,286.0
22.274821427,264.0
22.312421781,321.0
22.350022135,298.0
22.387622489,303.0
22.425222843,266.0
22.462823197,292.0
22.500423551,309.0
22.538023906,276.0
22.575624260,308.0
22.613224614,303.0
22.650824968,282.0
22.688425322,300.0
22.726025676,317.0
22.763626030,305.0
22.801226384,287.0
22.838826738,275.0
22.876427093,309.0
22.914027447,302.0
22.951627801,312.0
22.989228155,264.0
23.026828509,283.0
23.064428863,305.0
23.102029217,322.0
23.139629571,242.0
23.177229925,250.0
23.214830280,289.0
23.252430634,292.0
23.290030988,309.0
23.327631342,277.0
23.365231696,291.0
23.402832050,295.0
23.440432404,254.0
23.478032758,302.0
23.515633112,308.0
23.553233467,305.0
23.590833821,294.0
23.628434175,308.0
23.666034529,281.0
23.703634883,290.0
23.741235237,277.0
23.778835591,279.0
23.816435945,281.0
23.854036300,307.0
23.891636654,287.0
23.929237008,307.0
23.966837362,283.0
24.004437716,269.0
24.042038070,286.0
24.079638424,253.0
24.117238778,330.0
24.154839132,265.0
24.192439487,260.0
24.230039841,254.0
24.267640195,264.0
24.305240549,282.0
24.342840903,301.0
24.380441257,261.0
24.418041611,251.0
24.455641965,269.0
24.493242319,292.0
24.530842674,282.0
24.568443028,270.0
24.606043382,254.0
24.643643736,281.0
24.681244090,250.0
24.718844444,249.0
24.756444798,307.0
24.794045152,283.0
24.831645506,301.0
24.869245861,296.0
24.906846215,291.0
24.944446569,276.0
24.982046923,288.0
25.019647277,281.0
25.057247631,276.0
25.094847985,238.0
25.132448339,263.0
25.170048693,289.0
25.207649048,266.0
25.245249402,263.0
25.282849756,263.0
25.320450110,264.0
25.358050464,247.0
25.395650818,261.0
25.433251172,252.0
25.470851526,242.0
25.508451880,283.0
25.546052235,278.0
25.583652589,277.0
25.621252943,270.0
25.658853297,234.0
25.696453651,259.0
25.734054005,231.0
25.771654359,278.0
25.809254713,274.0
25.846855067,262.0
25.884455422,255.0
25.922055776,246.0
25.959656130,280.0
25.997256484,244.0
26.034856838,241.0
26.072457192,277.0
26.110057546,230.0
26.147657900,242.0
26.185258255,298.0
26.222858609,239.0
26.260458963,228.0
26.298059317,268.0
26.335659671,269.0
26.373260025,244.0
26.410860379,232.0
26.448460733,240.0
26.486061087,242.0
26.523661442,257.0
26.561261796,246.0
26.598862150,224.0
26.636462504,226.0
26.674062858,236.0
26.711663212,218.0
26.749263566,251.0
26.786863920,231.0
26.824464274,260.0
26.862064629,244.0
26.899664983,279.0
26.937265337,235.0
26.974865691,260.0
27.012466045,257.0
27.050066399,239.0
27.087666753,216.0
27.125267107,224.0
27.162867461,253.0
27.200467816,270.0
27.238068170,250.0
27.275668524,251.0
27.313268878,226.0
27.350869232,222.0
27.388469586,212.0
27.426069940,227.0
27.463670294,247.0
27.501270648,221.0
27.538871003,241.0
27.576471357,230.0
27.614071711,243.0
27.651672065,244.0
27.689272419,255.0
27.726872773,250.0
27.764473127,249.0
27.802073481,267.0
27.839673835,241.0
27.877274190,200.0
27.914874544,238.0
27.952474898,237.0
27.990075252,213.0
28.027675606,238.0
28.065275960,222.0
28.102876314,242.0
28.140476668,234.0
28.178077022,229.0
28.215677377,234.0
28.253277731,205.0
28.290878085,230.0
28.328478439,272.0
28.366078793,244.0
28.403679147,268.0
28.441279501,230.0
28.478879855,243.0
28.516480210,216.0
28.554080564,237.0
28.591680918,224.0
28.629281272,193.0
28.666881626,231.0
28.704481980,239.0
28.742082334,230.0
28.779682688,200.0
28.817283042,204.0
28.854883397,217.0
28.892483751,195.0
28.930084105,221.0
28.967684459,208.0
29.005284813,217.0
29.042885167,214.0
29.080485521,208.0
29.118085875,219.0
29.155686229,221.0
29.193286584,241.0
29.230886938,213.0
29.268487292,219.0
29.306087646,230.0
29.343688000,202.0
29.381288354,191.0
29.418888708,215.0
29.456489062,193.0
29.494089416,193.0
29.531689771,215.0
29.569290125,189.0
29.606890479,221.0
29.644490833,216.0
29.682091187,221.0
29.719691541,198.0
29.757291895,197.0
29.794892249,206.0
29.832492603,184.0
29.870092958,205.0
29.907693312,211.0
29.945293666,212.0
29.982894020,191.0
30.020494374,172.0
30.058094728,228.0
30.095695082,222.0
30.133295436,211.0
30.170895790,214.0
30.208496145,188.0
30.246096499,214.0
30.283696853,241.0
30.321297207,215.0
30.358897561,192.0
30.396497915,203.0
30.434098269,195.0
30.471698623,216.0
30.509298977,212.0
30.546899332,197.0
30.584499686,175.0
30.622100040,201.0
30.659700394,200.0
30.697300748,200.0
30.734901102,190.0
30.772501456,195.0
30.810101810,193.0
30.847702165,200.0
30.885302519,186.0
30.922902873,195.0
30.960503227,213.0
30.998103581,205.0
31.035703935,196.0
31.073304289,192.0
31.110904643,190.0
31.148504997,191.0
31.186105352,182.0
31.223705706,208.0
31.261306060,162.0
31.298906414,159.0
31.336506768,197.0
31.374107122,209.0
31.411707476,206.0
31.449307830,187.0
31.486908184,205.0
31.524508539,201.0
31.562108893,183.0
31.599709247,212.0
31.637309601,200.0
31.674909955,178.0
31.712510309,225.0
31.750110663,186.0
31.787711017,175.0
31.825311371,180.0
31.862911726,201.0
31.900512080,172.0
31.938112434,163.0
31.975712788,198.0
32.013313142,193.0
32.050913496,172.0
32.088513850,161.0
32.126114204,186.0
32.163714558,158.0
32.201314913,169.0
32.238915267,170.0
32.276515621,186.0
32.314115975,180.0
32.351716329,171.0
32.389316683,178.0
32.426917037,193.0
32.464517391,213.0
32.502117745,190.0
32.539718100,174.0
32.577318454,196.0
32.614918808,183.0
32.652519162,202.0
32.690119516,164.0
32.727719870,173.0
32.765320224,192.0
32.802920578,202.0
32.840520932,206.0
32.878121287,195.0
32.915721641,288.0
32.953321995,228.0
32.990922349,183.0
33.028522703,154.0
33.066123057,191.0
33.103723411,170.0
33.141323765,177.0
33.178924119,175.0
33.216524474,174.0
33.254124828,182.0
33.291725182,186.0
33.329325536,166.0
33.366925890,183.0
33.404526244,166.0
33.442126598,165.0
33.479726952,166.0
33.517327307,158.0
33.554927661,187.0
33.592528015,178.0
33.630128369,188.0
33.667728723,157.0
33.705329077,167.0
33.742929431,182.0
33.780529785,169.0
33.818130139,149.0
33.855730494,188.0
33.893330848,166.0
33.930931202,174.0
33.968531556,189.0
34.006131910,156.0
34.043732264,171.0
34.081332618,172.0
34.118932972,156.0
34.156533326,183.0
34.194133681,176.0
34.231734035,161.0
34.269334389,164.0
34.306934743,148.0
34.344535097,170.0
34.382135451,182.0
34.419735805,171.0
34.457336159,189.0
34.494936513,163.0
34.532536868,182.0
34.570137222,151.0
34.607737576,160.0
34.645337930,174.0
34.682938284,185.0
34.720538638,157.0
34.758138992,149.0
34.795739346,137.0
34.833339700,144.0
34.870940055,166.0
34.908540409,163.0
34.946140763,140.0
34.983741117,144.0
35.021341471,179.0
35.058941825,157.0
35.096542179,147.0
35.134142533,163.0
35.171742887,134.0
35.209343242,183.0
35.246943596,147.0
35.284543950,147.0
35.322144304,185.0
35.359744658,176.0
35.397345012,159.0
35.434945366,130.0
35.472545720,164.0
35.510146074,179.0
35.547746429,166.0
35.585346783,160.0
35.622947137,149.0
35.660547491,166.0
35.698147845,158.0
35.735748199,149.0
35.773348553,167.0
35.810948907,149.0
35.848549262,146.0
35.886149616,153.0
35.923749970,148.0
35.961350324,151.0
35.998950678,165.0
36.036551032,176.0
36.074151386,158.0
36.111751740,165.0
36.149352094,150.0
36.186952449,158.0
36.224552803,157.0
36.262153157,137.0
36.299753511,151.0
36.337353865,179.0
36.374954219,134.0
36.412554573,148.0
36.450154927,159.0
36.487755281,173.0
36.525355636,159.0
36.562955990,167.0
36.600556344,145.0
36.638156698,154.0
36.675757052,138.0
36.713357406,143.0
36.750957760,159.0
36.788558114,178.0
36.826158468,154.0
36.863758823,164.0
36.901359177,172.0
36.938959531,151.0
36.976559885,184.0
37.014160239,173.0
37.051760593,165.0
37.089360947,156.0
37.126961301,204.0
37.164561655,173.0
37.202162010,151.0
37.239762364,186.0
37.277362718,191.0
37.314963072,178.0
37.352563426,178.0
37.390163780,163.0
37.427764134,206.0
37.465364488,184.0
37.502964842,180.0
37.540565197,175.0
37.578165551,253.0
37.615765905,246.0
37.653366259,241.0
37.690966613,238.0
37.728566967,275.0
37.766167321,321.0
37.803767675,372.0
37.841368029,399.0
37.878968384,528.0
37.916568738,645.0
37.954169092,901.0
37.991769446,1412.0
38.029369800,2248.0
38.066970154,3241.0
38.104570508,3342.0
38.142170862,2681.0
38.179771217,2437.0
38.217371571,1743.0
38.254971925,1117.0
38.292572279,772.0
38.330172633,568.0
38.367772987,452.0
38.405373341,378.0
38.442973695,352.0
38.480574049,277.0
38.518174404,277.0
38.555774758,234.0
38.593375112,201.0
38.630975466,208.0
38.668575820,238.0
38.706176174,206.0
38.743776528,193.0
38.781376882,173.0
38.818977236,195.0
38.856577591,185.0
38.894177945,159.0
38.931778299,171.0
38.969378653,166.0
39.006979007,159.0
39.044579361,162.0
39.082179715,134.0
39.119780069,164.0
39.157380423,134.0
39.194980778,150.0
39.232581132,144.0
39.270181486,143.0
39.307781840,154.0
39.345382194,163.0
39.382982548,161.0
39.420582902,167.0
39.458183256,135.0
39.495783610,184.0
39.533383965,144.0
39.570984319,135.0
39.608584673,150.0
39.646185027,147.0
39.683785381,138.0
39.721385735,134.0
39.758986089,131.0
39.796586443,131.0
39.834186797,148.0
39.871787152,158.0
39.909387506,157.0
39.946987860,126.0
39.984588214,126.0
40.022188568,121.0
40.059788922,122.0
40.097389276,132.0
40.134989630,124.0
40.172589984,140.0
40.210190339,135.0
40.247790693,140.0
40.285391047,156.0
40.322991401,125.0
40.360591755,115.0
40.398192109,147.0
40.435792463,150.0
40.473392817,140.0
40.510993172,123.0
40.548593526,118.0
40.586193880,126.0
40.623794234,147.0
40.661394588,123.0
40.698994942,106.0
40.736595296,130.0
40.774195650,131.0
40.811796004,134.0
40.849396359,132.0
40.886996713,146.0
40.924597067,160.0
40.962197421,126.0
40.999797775,136.0
41.037398129,122.0
41.074998483,118.0
41.112598837,111.0
41.150199191,124.0
41.187799546,143.0
41.225399900,112.0
41.263000254,104.0
41.300600608,128.0
41.338200962,118.0
41.375801316,106.0
41.413401670,132.0
41.451002024,107.0
41.488602378,117.0
41.526202733,106.0
41.563803087,102.0
41.601403441,127.0
41.639003795,108.0
41.676604149,123.0
41.714204503,140.0
41.751804857,115.0
41.789405211,126.0
41.827005565,127.0
41.864605920,156.0
41.902206274,118.0
41.939806628,121.0
41.977406982,130.0
42.015007336,110.0
42.052607690,121.0
42.090208044,101.0
42.127808398,104.0
42.165408752,127.0
42.203009107,124.0
42.240609461,133.0
42.278209815,122.0
42.315810169,111.0
42.353410523,125.0
42.391010877,134.0
42.428611231,144.0
42.466211585,96.0
42.503811939,136.0
42.541412294,135.0
42.579012648,139.0
42.616613002,112.0
42.654213356,121.0
42.691813710,111.0
42.729414064,114.0
42.767014418,156.0
42.804614772,124.0
42.842215127,111.0
42.879815481,106.0
42.917415835,114.0
42.955016189,133.0
42.992616543,158.0
43.030216897,136.0
43.067817251,143.0
43.105417605,126.0
43.143017959,131.0
43.180618314,125.0
43.218218668,125.0
43.255819022,140.0
43.293419376,130.0
43.331019730,123.0
43.368620084,160.0
43.406220438,134.0
43.443820792,147.0
43.481421146,150.0
43.519021501,130.0
43.556621855,160.0
43.594222209,186.0
43.631822563,156.0
43.669422917,144.0
43.707023271,156.0
43.744623625,172.0
43.782223979,170.0
43.819824333,179.0
43.857424688,180.0
43.895025042,215.0
43.932625396,240.0
43.970225750,242.0
44.007826104,286.0
44.045426458,363.0
44.083026812,361.0
44.120627166,402.0
44.158227520,539.0
44.195827875,694.0
44.233428229,869.0
44.271028583,956.0
44.308628937,924.0
44.346229291,797.0
44.383829645,734.0
44.421429999,550.0
44.459030353,461.0
44.496630707,357.0
44.534231062,315.0
44.571831416,280.0
44.609431770,237.0
44.647032124,209.0
44.684632478,183.0
44.722232832,157.0
44.759833186,167.0
44.797433540,162.0
44.835033894,156.0
44.872634249,161.0
44.910234603,146.0
44.947834957,131.0
44.985435311,157.0
45.023035665,127.0
45.060636019,114.0
45.098236373,131.0
45.135836727,118.0
45.173437081,130.0
45.211037436,92.0
45.248637790,115.0
45.286238144,128.0
45.323838498,128.0
45.361438852,123.0
45.399039206,115.0
45.436639560,128.0
45.474239914,117.0
45.511840269,111.0
45.549440623,121.0
45.587040977,114.0
45.624641331,126.0
45.662241685,127.0
45.699842039,110.0
45.737442393,137.0
45.775042747,113.0
45.812643101,117.0
45.850243456,119.0
45.887843810,121.0
45.925444164,117.0
45.963044518,124.0
46.000644872,132.0
46.038245226,109.0
46.075845580,130.0
46.113445934,147.0
46.151046288,127.0
46.188646643,122.0
46.226246997,123.0
46.263847351,99.0
46.301447705,87.0
46.339048059,112.0
46.376648413,114.0
46.414248767,130.0
46.451849121,98.0
46.489449475,107.0
46.527049830,123.0
46.564650184,96.0
46.602250538,104.0
46.639850892,133.0
46.677451246,110.0
46.715051600,113.0
46.752651954,124.0
46.790252308,105.0
46.827852662,112.0
46.865453017,94.0
46.903053371,115.0
46.940653725,94.0
46.978254079,109.0
47.015854433,91.0
47.053454787,111.0
47.091055141,118.0
47.128655495,110.0
47.166255849,94.0
47.203856204,113.0
47.241456558,108.0
47.279056912,107.0
47.316657266,111.0
47.354257620,105.0
47.391857974,97.0
47.429458328,91.0
47.467058682,89.0
47.504659036,91.0
47.542259391,96.0
47.579859745,105.0
47.617460099,102.0
47.655060453,104.0
47.692660807,95.0
47.730261161,115.0
47.767861515,107.0
47.805461869,87.0
47.843062224,96.0
47.880662578,78.0
47.918262932,95.0
47.955863286,121.0
47.993463640,99.0
48.031063994,108.0
48.068664348,115.0
48.106264702,86.0
48.143865056,104.0
48.181465411,105.0
48.219065765,115.0
48.256666119,92.0
48.294266473,101.0
48.331866827,105.0
48.369467181,93.0
48.407067535,85.0
48.444667889,85.0
48.482268243,87.0
48.519868598,97.0
48.557468952,101.0
48.595069306,93.0
48.632669660,88.0
48.670270014,91.0
48.707870368,99.0
48.745470722,94.0
48.783071076,110.0
48.820671430,107.0
48.858271785,92.0
48.895872139,98.0
48.933472493,97.0
48.971072847,100.0
49.008673201,101.0
49.046273555,89.0
49.083873909,108.0
49.121474263,95.0
49.159074617,102.0
49.196674972,89.0
49.234275326,94.0
49.271875680,81.0
49.309476034,107.0
49.347076388,88.0
49.384676742,94.0
49.422277096,84.0
49.459877450,93.0
49.497477804,78.0
49.535078159,92.0
49.572678513,96.0
49.610278867,93.0
49.647879221,89.0
49.685479575,80.0
49.723079929,94.0
49.760680283,83.0
49.798280637,86.0
49.835880991,94.0
49.873481346,74.0
49.911081700,73.0
49.948682054,82.0
49.986282408,87.0
50.023882762,72.0
50.061483116,91.0
50.099083470,76.0
50.136683824,93.0
50.174284179,100.0
50.211884533,100.0
50.249484887,87.0
50.287085241,89.0
50.324685595,91.0
50.362285949,102.0
50.399886303,96.0
50.437486657,88.0
50.475087011,84.0
50.512687366,81.0
50.550287720,91.0
50.587888074,105.0
50.625488428,92.0
50.663088782,71.0
50.700689136,71.0
50.738289490,82.0
50.775889844,88.0
50.813490198,82.0
50.851090553,93.0
50.888690907,91.0
50.926291261,81.0
50.963891615,73.0
51.001491969,63.0
51.039092323,78.0
51.076692677,84.0
51.114293031,80.0
51.151893385,75.0
51.189493740,71.0
51.227094094,95.0
51.264694448,84.0
51.302294802,74.0
51.339895156,72.0
51.377495510,67.0
51.415095864,94.0
51.452696218,84.0
51.490296572,94.0
51.527896927,69.0
51.565497281,79.0
51.603097635,76.0
51.640697989,69.0
51.678298343,91.0
51.715898697,71.0
51.753499051,78.0
51.791099405,95.0
51.828699759,93.0
51.866300114,78.0
51.903900468,83.0
51.941500822,60.0
51.979101176,86.0
52.016701530,86.0
52.054301884,75.0
52.091902238,76.0
52.129502592,86.0
52.167102946,71.0
52.204703301,78.0
52.242303655,60.0
52.279904009,81.0
52.317504363,65.0
52.355104717,72.0
52.392705071,85.0
52.430305425,95.0
52.467905779,86.0
52.505506134,82.0
52.543106488,81.0
52.580706842,81.0
52.618307196,58.0
52.655907550,73.0
52.693507904,74.0
52.731108258,92.0
52.768708612,88.0
52.806308966,75.0
52.843909321,78.0
52.881509675,72.0
52.919110029,75.0
52.956710383,67.0
52.994310737,68.0
53.031911091,61.0
53.069511445,78.0
53.107111799,79.0
53.144712153,71.0
53.182312508,86.0
53.219912862,81.0
53.257513216,69.0
53.295113570,75.0
53.332713924,63.0
53.370314278,81.0
53.407914632,74.0
53.445514986,70.0
53.483115340,61.0
53.520715695,78.0
53.558316049,80.0
53.595916403,68.0
53.633516757,72.0
53.671117111,78.0
53.708717465,80.0
53.746317819,78.0
53.783918173,71.0
53.821518527,82.0
53.859118882,70.0
53.896719236,72.0
53.934319590,75.0
53.971919944,73.0
54.009520298,68.0
54.047120652,75.0
54.084721006,76.0
54.122321360,58.0
54.159921714,68.0
54.197522069,66.0
54.235122423,53.0
54.272722777,62.0
54.310323131,86.0
54.347923485,87.0
54.385523839,72.0
54.423124193,63.0
54.460724547,101.0
54.498324901,74.0
54.535925256,76.0
54.573525610,82.0
54.611125964,56.0
54.648726318,69.0
54.686326672,85.0
54.723927026,78.0
54.761527380,52.0
54.799127734,66.0
54.836728089,76.0
54.874328443,96.0
54.911928797,59.0
54.949529151,68.0
54.987129505,79.0
55.024729859,80.0
55.062330213,84.0
55.099930567,74.0
55.137530921,69.0
55.175131276,84.0
55.212731630,65.0
55.250331984,60.0
55.287932338,66.0
55.325532692,58.0
55.363133046,72.0
55.400733400,67.0
55.438333754,55.0
55.475934108,74.0
55.513534463,55.0
55.551134817,65.0
55.588735171,72.0
55.626335525,67.0
55.663935879,72.0
55.701536233,72.0
55.739136587,57.0
55.776736941,79.0
55.814337295,76.0
55.851937650,93.0
55.889538004,79.0
55.927138358,81.0
55.964738712,67.0
56.002339066,84.0
56.039939420,82.0
56.077539774,56.0
56.115140128,91.0
56.152740482,71.0
56.190340837,63.0
56.227941191,69.0
56.265541545,70.0
56.303141899,79.0
56.340742253,66.0
56.378342607,47.0
56.415942961,78.0
56.453543315,72.0
56.491143669,62.0
56.528744024,83.0
56.566344378,56.0
56.603944732,60.0
56.641545086,63.0
56.679145440,56.0
56.716745794,63.0
56.754346148,76.0
56.791946502,55.0
56.829546856,66.0
56.867147211,72.0
56.904747565,52.0
56.942347919,70.0
56.979948273,59.0
57.017548627,69.0
57.055148981,62.0
57.092749335,63.0
57.130349689,84.0
57.167950043,57.0
57.205550398,67.0
57.243150752,60.0
57.280751106,66.0
57.318351460,54.0
57.355951814,67.0
57.393552168,71.0
57.431152522,59.0
57.468752876,62.0
57.506353231,79.0
57.543953585,63.0
57.581553939,44.0
57.619154293,61.0
57.656754647,61.0
57.694355001,55.0
57.731955355,71.0
57.769555709,74.0
57.807156063,74.0
57.844756418,63.0
57.882356772,54.0
57.919957126,71.0
57.957557480,58.0
57.995157834,69.0
58.032758188,75.0
58.070358542,67.0
58.107958896,62.0
58.145559250,67.0
58.183159605,70.0
58.220759959,52.0
58.258360313,61.0
58.295960667,49.0
58.333561021,63.0
58.371161375,54.0
58.408761729,61.0
58.446362083,54.0
58.483962437,49.0
58.521562792,56.0
58.559163146,43.0
58.596763500,57.0
58.634363854,69.0
58.671964208,72.0
58.709564562,74.0
58.747164916,58.0
58.784765270,52.0
58.822365624,67.0
58.859965979,73.0
58.897566333,69.0
58.935166687,69.0
58.972767041,58.0
59.010367395,56.0
59.047967749,57.0
59.085568103,63.0
59.123168457,70.0
59.160768811,40.0
59.198369166,60.0
59.235969520,49.0
59.273569874,73.0
59.311170228,78.0
59.348770582,60.0
59.386370936,63.0
59.423971290,46.0
59.461571644,72.0
59.499171998,60.0
59.536772353,76.0
59.574372707,57.0
59.611973061,54.0
59.649573415,48.0
59.687173769,59.0
59.724774123,46.0
59.762374477,56.0
59.799974831,62.0
59.837575186,70.0
59.875175540,50.0
59.912775894,48.0
59.950376248,68.0
59.987976602,56.0
60.025576956,58.0
60.063177310,49.0
60.100777664,65.0
60.138378018,63.0
60.175978373,68.0
60.213578727,50.0
60.251179081,57.0
60.288779435,59.0
60.326379789,62.0
60.363980143,68.0
60.401580497,49.0
60.439180851,60.0
60.476781205,59.0
60.514381560,48.0
60.551981914,66.0
60.589582268,66.0
60.627182622,43.0
60.664782976,52.0
60.702383330,48.0
60.739983684,54.0
60.777584038,71.0
60.815184392,61.0
60.852784747,54.0
60.890385101,69.0
60.927985455,56.0
60.965585809,41.0
61.003186163,62.0
61.040786517,62.0
61.078386871,67.0
61.115987225,70.0
61.153587579,96.0
61.191187934,49.0
61.228788288,61.0
61.266388642,61.0
61.303988996,84.0
61.341589350,84.0
61.379189704,78.0
61.416790058,73.0
61.454390412,71.0
61.491990766,86.0
61.529591121,104.0
61.567191475,138.0
61.604791829,254.0
61.642392183,624.0
61.679992537,1066.0
61.717592891,400.0
61.755193245,171.0
61.792793599,102.0
61.830393953,85.0
61.867994308,84.0
61.905594662,76.0
61.943195016,91.0
61.980795370,57.0
62.018395724,73.0
62.055996078,58.0
62.093596432,60.0
62.131196786,81.0
62.168797141,59.0
62.206397495,80.0
62.243997849,58.0
62.281598203,96.0
62.319198557,61.0
62.356798911,56.0
62.394399265,70.0
62.431999619,74.0
62.469599973,60.0
62.507200328,54.0
62.544800682,76.0
62.582401036,67.0
62.620001390,70.0
62.657601744,60.0
62.695202098,63.0
62.732802452,58.0
62.770402806,69.0
62.808003160,59.0
62.845603515,62.0
62.883203869,69.0
62.920804223,69.0
62.958404577,70.0
62.996004931,59.0
63.033605285,65.0
63.071205639,48.0
63.108805993,65.0
63.146406347,58.0
63.184006702,79.0
63.221607056,80.0
63.259207410,69.0
63.296807764,53.0
63.334408118,68.0
63.372008472,61.0
63.409608826,46.0
63.447209180,84.0
63.484809534,72.0
63.522409889,66.0
63.560010243,74.0
63.597610597,69.0
63.635210951,59.0
63.672811305,79.0
63.710411659,76.0
63.748012013,81.0
63.785612367,67.0
63.823212721,81.0
63.860813076,92.0
63.898413430,88.0
63.936013784,91.0
63.973614138,102.0
64.011214492,102.0
64.048814846,88.0
64.086415200,109.0
64.124015554,127.0
64.161615908,124.0
64.199216263,161.0
64.236816617,193.0
64.274416971,251.0
64.312017325,312.0
64.349617679,417.0
64.387218033,443.0
64.424818387,455.0
64.462418741,433.0
64.500019096,360.0
64.537619450,382.0
64.575219804,350.0
64.612820158,307.0
64.650420512,267.0
64.688020866,185.0
64.725621220,187.0
64.763221574,160.0
64.800821928,119.0
64.838422283,148.0
64.876022637,130.0
64.913622991,111.0
64.951223345,101.0
64.988823699,94.0
65.026424053,79.0
65.064024407,80.0
65.101624761,108.0
65.139225115,76.0
65.176825470,91.0
65.214425824,92.0
65.252026178,93.0
65.289626532,98.0
65.327226886,76.0
65.364827240,85.0
65.402427594,84.0
65.440027948,86.0
65.477628302,72.0
65.515228657,72.0
65.552829011,91.0
65.590429365,66.0
65.628029719,82.0
65.665630073,67.0
65.703230427,79.0
65.740830781,76.0
65.778431135,83.0
65.816031489,84.0
65.853631844,69.0
65.891232198,78.0
65.928832552,75.0
65.966432906,67.0
66.004033260,80.0
66.041633614,82.0
66.079233968,91.0
66.116834322,71.0
66.154434676,68.0
66.192035031,83.0
66.229635385,97.0
66.267235739,85.0
66.304836093,88.0
66.342436447,83.0
66.380036801,109.0
66.417637155,164.0
66.455237509,326.0
66.492837863,489.0
66.530438218,432.0
66.568038572,447.0
66.605638926,406.0
66.643239280,488.0
66.680839634,428.0
66.718439988,394.0
66.756040342,377.0
66.793640696,439.0
66.831241051,457.0
66.868841405,492.0
66.906441759,455.0
66.944042113,494.0
66.981642467,477.0
67.019242821,490.0
67.056843175,442.0
67.094443529,455.0
67.132043883,445.0
67.169644238,485.0
67.207244592,494.0
67.244844946,477.0
67.282445300,484.0
67.320045654,447.0
67.357646008,478.0
67.395246362,482.0
67.432846716,488.0
67.470447070,522.0
67.508047425,513.0
67.545647779,482.0
67.583248133,482.0
67.620848487,529.0
67.658448841,564.0
67.696049195,532.0
67.733649549,549.0
67.771249903,519.0
67.808850257,513.0
67.846450612,522.0
67.884050966,535.0
67.921651320,548.0
67.959251674,578.0
67.996852028,552.0
68.034452382,587.0
68.072052736,654.0
68.109653090,622.0
68.147253444,622.0
68.184853799,710.0
68.222454153,690.0
68.260054507,711.0
68.297654861,788.0
68.335255215,751.0
68.372855569,799.0
68.410455923,877.0
68.448056277,886.0
68.485656631,948.0
68.523256986,1059.0
68.560857340,1136.0
68.598457694,1279.0
68.636058048,1481.0
68.673658402,1899.0
68.711258756,2599.0
68.748859110,3562.0
68.786459464,4224.0
68.824059818,4195.0
68.861660173,4131.0
68.899260527,4805.0
68.936860881,7222.0
68.974461235,11892.0
69.012061589,20486.0
69.049661943,46663.0
69.087262297,247069.0
69.124862651,405418.0
69.162463005,85812.0
69.200063360,29230.0
69.237663714,27866.0
69.275264068,88203.0
69.312864422,222871.0
69.350464776,69081.0
69.388065130,17755.0
69.425665484,8239.0
69.463265838,5404.0
69.500866193,3925.0
69.538466547,3185.0
69.576066901,2662.0
69.613667255,2189.0
69.651267609,1927.0
69.688867963,1745.0
69.726468317,1534.0
69.764068671,1407.0
69.801669025,1238.0
69.839269380,1122.0
69.876869734,1067.0
69.914470088,979.0
69.952070442,1021.0
69.989670796,926.0
70.027271150,892.0
70.064871504,801.0
70.102471858,834.0
70.140072212,728.0
70.177672567,749.0
70.215272921,730.0
70.252873275,619.0
70.290473629,642.0
70.328073983,639.0
70.365674337,598.0
70.403274691,554.0
70.440875045,537.0
70.478475399,529.0
70.516075754,547.0
70.553676108,518.0
70.591276462,476.0
70.628876816,505.0
70.666477170,503.0
70.704077524,452.0
70.741677878,468.0
70.779278232,455.0
70.816878586,428.0
70.854478941,437.0
70.892079295,458.0
70.929679649,436.0
70.967280003,419.0
71.004880357,424.0
71.042480711,400.0
71.080081065,402.0
71.117681419,399.0
71.155281773,366.0
71.192882128,386.0
71.230482482,396.0
71.268082836,354.0
71.305683190,405.0
71.343283544,332.0
71.380883898,339.0
71.418484252,329.0
71.456084606,356.0
71.493684960,316.0
71.531285315,321.0
71.568885669,298.0
71.606486023,339.0
71.644086377,326.0
71.681686731,350.0
71.719287085,331.0
71.756887439,334.0
71.794487793,303.0
71.832088148,307.0
71.869688502,329.0
71.907288856,300.0
71.944889210,331.0
71.982489564,282.0
72.020089918,307.0
72.057690272,277.0
72.095290626,274.0
72.132890980,286.0
72.170491335,280.0
72.208091689,307.0
72.245692043,273.0
72.283292397,269.0
72.320892751,267.0
72.358493105,272.0
72.396093459,305.0
72.433693813,280.0
72.471294167,301.0
72.508894522,272.0
72.546494876,260.0
72.584095230,234.0
72.621695584,263.0
72.659295938,273.0
72.696896292,279.0
72.734496646,287.0
72.772097000,248.0
72.809697354,259.0
72.847297709,227.0
72.884898063,219.0
72.922498417,273.0
72.960098771,285.0
72.997699125,237.0
73.035299479,246.0
73.072899833,267.0
73.110500187,248.0
73.148100541,253.0
73.185700896,204.0
73.223301250,240.0
73.260901604,241.0
73.298501958,214.0
73.336102312,230.0
73.373702666,229.0
73.411303020,211.0
73.448903374,176.0
73.486503728,221.0
73.524104083,239.0
73.561704437,241.0
73.599304791,224.0
73.636905145,216.0
73.674505499,216.0
73.712105853,212.0
73.749706207,228.0
73.787306561,219.0
73.824906915,210.0
73.862507270,254.0
73.900107624,239.0
73.937707978,211.0
73.975308332,213.0
74.012908686,226.0
74.050509040,223.0
74.088109394,222.0
74.125709748,226.0
74.163310103,209.0
74.200910457,238.0
74.238510811,223.0
74.276111165,209.0
74.313711519,231.0
74.351311873,203.0
74.388912227,231.0
74.426512581,201.0
74.464112935,176.0
74.501713290,213.0
74.539313644,188.0
74.576913998,193.0
74.614514352,208.0
74.652114706,167.0
74.689715060,187.0
74.727315414,206.0
74.764915768,210.0
74.802516122,190.0
74.840116477,204.0
74.877716831,188.0
74.915317185,180.0
74.952917539,183.0
74.990517893,205.0
75.028118247,203.0
75.065718601,175.0
75.103318955,212.0
75.140919309,196.0
75.178519664,202.0
75.216120018,178.0
75.253720372,218.0
75.291320726,199.0
75.328921080,180.0
75.366521434,144.0
75.404121788,177.0
75.441722142,189.0
75.479322496,186.0
75.516922851,174.0
75.554523205,193.0
75.592123559,177.0
75.629723913,193.0
75.667324267,173.0
75.704924621,190.0
75.742524975,184.0
75.780125329,187.0
75.817725683,191.0
75.855326038,202.0
75.892926392,187.0
75.930526746,166.0
75.968127100,165.0
76.005727454,185.0
76.043327808,153.0
76.080928162,152.0
76.118528516,188.0
76.156128870,161.0
76.193729225,165.0
76.231329579,188.0
76.268929933,183.0
76.306530287,189.0
76.344130641,177.0
76.381730995,182.0
76.419331349,184.0
76.456931703,214.0
76.494532058,182.0
76.532132412,173.0
76.569732766,166.0
76.607333120,160.0
76.644933474,176.0
76.682533828,173.0
76.720134182,193.0
76.757734536,201.0
76.795334890,200.0
76.832935245,198.0
76.870535599,199.0
76.908135953,215.0
76.945736307,212.0
76.983336661,204.0
77.020937015,235.0
77.058537369,231.0
77.096137723,269.0
77.133738077,281.0
77.171338432,307.0
77.208938786,302.0
77.246539140,370.0
77.284139494,382.0
77.321739848,461.0
77.359340202,508.0
77.396940556,492.0
77.434540910,434.0
77.472141264,448.0
77.509741619,418.0
77.547341973,445.0
77.584942327,390.0
77.622542681,374.0
77.660143035,353.0
77.697743389,298.0
77.735343743,292.0
77.772944097,252.0
77.810544451,198.0
77.848144806,225.0
77.885745160,202.0
77.923345514,193.0
77.960945868,187.0
77.998546222,159.0
78.036146576,166.0
78.073746930,162.0
78.111347284,159.0
78.148947638,171.0
78.186547993,154.0
78.224148347,152.0
78.261748701,146.0
78.299349055,144.0
78.336949409,152.0
78.374549763,161.0
78.412150117,156.0
78.449750471,143.0
78.487350825,145.0
78.524951180,154.0
78.562551534,143.0
78.600151888,133.0
78.637752242,136.0
78.675352596,134.0
78.712952950,137.0
78.750553304,140.0
78.788153658,122.0
78.825754013,149.0
78.863354367,138.0
78.900954721,117.0
78.938555075,120.0
78.976155429,119.0
79.013755783,124.0
79.051356137,124.0
79.088956491,147.0
79.126556845,133.0
79.164157200,120.0
79.201757554,148.0
79.239357908,127.0
79.276958262,125.0
79.314558616,134.0
79.352158970,131.0
79.389759324,127.0
79.427359678,125.0
79.464960032,135.0
79.502560387,126.0
79.540160741,114.0
79.577761095,121.0
79.615361449,122.0
79.652961803,111.0
79.690562157,118.0
79.728162511,140.0
79.765762865,140.0
79.803363219,127.0
79.840963574,118.0
79.878563928,133.0
79.916164282,101.0
79.953764636,119.0
79.991364990,120.0
